PE UV       SUBTECH     SPECTRUM    ASCII       PEDS        4.00        
   -1
Sample6992.Sample.asc
20/11/18
18:49:25.00
20/11/18
18:49:25.00
Administrator

200.000000
1
Lambda 650
650L1409151
PerkinElmer UV WinLab 6.2.0.0741 / 1.61.00 Lambda 650

0
0
2
0
0
UV/VIS
1
1
1
150mm sphere / downward view
0
0
0
0
Fix
 
0
0.2
0
0
0
 
 
 
0
 
0
319.2
0
Front
50
 
 
 
0
0
0
 
0
 
 
 
0
 
 
0
0
0
0
0
 
 
 
 
0
0


0
0
#HDR
-1
-1
#GR
nm
%R
1.0
0.0
850.000000
-1.000000
651
8
28.548919
0.424699
#DATA
850.000000	28.214884
849.000000	28.548919
848.000000	27.987413
847.000000	27.959412
846.000000	28.185210
845.000000	28.062453
844.000000	27.983335
843.000000	27.826769
842.000000	27.862291
841.000000	27.859472
840.000000	27.918586
839.000000	27.745736
838.000000	27.957443
837.000000	27.873226
836.000000	27.754466
835.000000	27.760241
834.000000	27.979843
833.000000	27.709904
832.000000	27.825873
831.000000	27.609246
830.000000	27.573310
829.000000	27.546656
828.000000	27.484335
827.000000	27.369931
826.000000	27.291200
825.000000	27.299247
824.000000	27.281579
823.000000	27.279240
822.000000	27.038024
821.000000	27.169038
820.000000	27.085488
819.000000	27.050783
818.000000	26.864913
817.000000	26.814535
816.000000	26.732339
815.000000	26.731070
814.000000	26.715376
813.000000	26.518605
812.000000	26.560598
811.000000	26.520124
810.000000	26.343203
809.000000	26.355979
808.000000	26.285513
807.000000	26.282775
806.000000	26.159604
805.000000	26.037615
804.000000	26.010487
803.000000	25.912814
802.000000	25.912629
801.000000	25.805548
800.000000	25.694137
799.000000	25.677174
798.000000	25.632588
797.000000	25.671258
796.000000	25.484017
795.000000	25.380279
794.000000	25.286049
793.000000	25.331207
792.000000	25.157064
791.000000	25.222407
790.000000	25.157676
789.000000	25.100294
788.000000	25.050397
787.000000	24.945010
786.000000	24.830575
785.000000	24.734374
784.000000	24.682713
783.000000	24.644453
782.000000	24.641915
781.000000	24.529873
780.000000	24.493092
779.000000	24.451710
778.000000	24.329522
777.000000	24.212177
776.000000	24.217592
775.000000	24.135532
774.000000	24.064381
773.000000	24.048010
772.000000	24.035578
771.000000	23.946159
770.000000	23.810112
769.000000	23.759926
768.000000	23.736574
767.000000	23.692609
766.000000	23.630923
765.000000	23.520179
764.000000	23.485605
763.000000	23.394621
762.000000	23.376035
761.000000	23.317284
760.000000	23.229112
759.000000	23.195508
758.000000	23.120351
757.000000	23.038064
756.000000	22.927236
755.000000	22.907817
754.000000	22.867013
753.000000	22.824028
752.000000	22.740797
751.000000	22.684080
750.000000	22.578864
749.000000	22.515360
748.000000	22.473556
747.000000	22.401475
746.000000	22.331269
745.000000	22.283103
744.000000	22.259895
743.000000	22.208559
742.000000	22.136897
741.000000	22.044592
740.000000	21.957237
739.000000	21.921079
738.000000	21.882677
737.000000	21.819605
736.000000	21.725255
735.000000	21.615686
734.000000	21.577641
733.000000	21.514681
732.000000	21.444395
731.000000	21.394035
730.000000	21.353344
729.000000	21.295082
728.000000	21.214382
727.000000	21.110548
726.000000	21.049915
725.000000	20.983587
724.000000	20.942690
723.000000	20.891955
722.000000	20.829813
721.000000	20.768082
720.000000	20.702649
719.000000	20.636893
718.000000	20.596207
717.000000	20.521863
716.000000	20.435196
715.000000	20.408677
714.000000	20.334050
713.000000	20.261596
712.000000	20.197378
711.000000	20.173077
710.000000	20.107150
709.000000	20.022977
708.000000	19.967736
707.000000	19.894786
706.000000	19.822024
705.000000	19.748751
704.000000	19.672955
703.000000	19.617834
702.000000	19.574578
701.000000	19.518907
700.000000	19.426614
699.000000	19.342814
698.000000	19.304106
697.000000	19.224739
696.000000	19.155508
695.000000	19.113051
694.000000	19.066511
693.000000	19.022977
692.000000	18.952615
691.000000	18.885671
690.000000	18.820880
689.000000	18.753593
688.000000	18.688040
687.000000	18.634894
686.000000	18.596457
685.000000	18.537623
684.000000	18.474705
683.000000	18.409792
682.000000	18.345958
681.000000	18.280973
680.000000	18.214830
679.000000	18.142867
678.000000	18.070422
677.000000	18.019367
676.000000	17.959090
675.000000	17.894239
674.000000	17.830766
673.000000	17.799096
672.000000	17.752893
671.000000	17.690266
670.000000	17.617063
669.000000	17.534108
668.000000	17.470309
667.000000	17.417166
666.000000	17.349267
665.000000	17.300574
664.000000	17.240054
663.000000	17.172257
662.000000	17.095827
661.000000	17.052728
660.000000	17.006874
659.000000	16.946611
658.000000	16.891615
657.000000	16.824029
656.000000	16.756313
655.000000	16.695319
654.000000	16.628904
653.000000	16.579098
652.000000	16.536811
651.000000	16.470792
650.000000	16.409526
649.000000	16.347409
648.000000	16.270074
647.000000	16.209268
646.000000	16.160840
645.000000	16.098476
644.000000	16.043326
643.000000	15.965633
642.000000	15.929389
641.000000	15.871196
640.000000	15.816910
639.000000	15.764612
638.000000	15.701258
637.000000	15.612737
636.000000	15.555805
635.000000	15.504374
634.000000	15.429161
633.000000	15.383100
632.000000	15.323228
631.000000	15.251938
630.000000	15.215734
629.000000	15.153682
628.000000	15.080149
627.000000	15.029524
626.000000	14.981544
625.000000	14.946885
624.000000	14.876858
623.000000	14.784170
622.000000	14.715822
621.000000	14.668656
620.000000	14.621344
619.000000	14.557496
618.000000	14.489337
617.000000	14.416146
616.000000	14.371117
615.000000	14.323250
614.000000	14.287110
613.000000	14.202501
612.000000	14.155182
611.000000	14.095632
610.000000	14.025653
609.000000	13.968728
608.000000	13.909345
607.000000	13.859782
606.000000	13.820048
605.000000	13.736786
604.000000	13.671766
603.000000	13.630082
602.000000	13.563006
601.000000	13.503855
600.000000	13.466331
599.000000	13.389100
598.000000	13.311523
597.000000	13.288255
596.000000	13.236888
595.000000	13.154066
594.000000	13.118870
593.000000	13.063691
592.000000	13.002865
591.000000	12.934624
590.000000	12.877784
589.000000	12.834011
588.000000	12.773638
587.000000	12.706281
586.000000	12.661397
585.000000	12.571060
584.000000	12.529494
583.000000	12.478248
582.000000	12.414586
581.000000	12.362907
580.000000	12.303247
579.000000	12.254338
578.000000	12.196129
577.000000	12.125649
576.000000	12.105883
575.000000	12.038911
574.000000	11.978454
573.000000	11.922987
572.000000	11.880323
571.000000	11.810638
570.000000	11.747138
569.000000	11.686505
568.000000	11.627291
567.000000	11.574370
566.000000	11.504938
565.000000	11.496892
564.000000	11.421636
563.000000	11.362645
562.000000	11.304779
561.000000	11.227029
560.000000	11.172066
559.000000	11.120833
558.000000	11.066211
557.000000	11.008729
556.000000	10.969423
555.000000	10.908514
554.000000	10.847507
553.000000	10.798686
552.000000	10.742508
551.000000	10.698659
550.000000	10.633487
549.000000	10.573022
548.000000	10.529965
547.000000	10.476350
546.000000	10.421915
545.000000	10.359773
544.000000	10.305820
543.000000	10.248059
542.000000	10.195169
541.000000	10.143480
540.000000	10.093835
539.000000	10.043269
538.000000	9.988577
537.000000	9.923099
536.000000	9.875111
535.000000	9.826839
534.000000	9.784744
533.000000	9.714887
532.000000	9.672532
531.000000	9.618654
530.000000	9.568040
529.000000	9.515904
528.000000	9.460698
527.000000	9.418115
526.000000	9.357710
525.000000	9.309083
524.000000	9.252272
523.000000	9.210122
522.000000	9.155595
521.000000	9.101933
520.000000	9.050459
519.000000	9.004204
518.000000	8.948230
517.000000	8.897008
516.000000	8.849117
515.000000	8.795835
514.000000	8.744457
513.000000	8.689509
512.000000	8.634608
511.000000	8.590697
510.000000	8.545290
509.000000	8.498361
508.000000	8.449780
507.000000	8.394866
506.000000	8.354983
505.000000	8.307059
504.000000	8.255898
503.000000	8.201249
502.000000	8.155589
501.000000	8.103937
500.000000	8.055780
499.000000	8.005715
498.000000	7.961692
497.000000	7.910436
496.000000	7.877489
495.000000	7.810636
494.000000	7.758129
493.000000	7.714045
492.000000	7.666544
491.000000	7.605085
490.000000	7.566033
489.000000	7.517429
488.000000	7.476856
487.000000	7.429942
486.000000	7.378863
485.000000	7.333536
484.000000	7.274391
483.000000	7.220211
482.000000	7.176616
481.000000	7.138879
480.000000	7.098793
479.000000	7.043145
478.000000	7.006274
477.000000	6.958250
476.000000	6.911074
475.000000	6.873599
474.000000	6.831654
473.000000	6.788980
472.000000	6.736632
471.000000	6.680613
470.000000	6.634929
469.000000	6.594151
468.000000	6.556985
467.000000	6.513499
466.000000	6.464332
465.000000	6.427190
464.000000	6.383536
463.000000	6.333044
462.000000	6.288040
461.000000	6.246521
460.000000	6.205269
459.000000	6.158246
458.000000	6.117842
457.000000	6.075442
456.000000	6.026442
455.000000	5.978704
454.000000	5.941789
453.000000	5.902566
452.000000	5.857739
451.000000	5.802950
450.000000	5.745674
449.000000	5.698362
448.000000	5.668726
447.000000	5.627758
446.000000	5.584407
445.000000	5.546280
444.000000	5.494712
443.000000	5.440326
442.000000	5.396874
441.000000	5.361028
440.000000	5.322019
439.000000	5.283043
438.000000	5.243869
437.000000	5.195580
436.000000	5.145819
435.000000	5.104149
434.000000	5.066342
433.000000	5.024624
432.000000	4.982612
431.000000	4.941356
430.000000	4.898800
429.000000	4.854262
428.000000	4.821496
427.000000	4.788486
426.000000	4.747985
425.000000	4.710198
424.000000	4.662319
423.000000	4.615104
422.000000	4.575787
421.000000	4.546954
420.000000	4.513719
419.000000	4.469927
418.000000	4.428653
417.000000	4.391137
416.000000	4.353933
415.000000	4.320668
414.000000	4.280942
413.000000	4.240195
412.000000	4.216694
411.000000	4.183114
410.000000	4.140731
409.000000	4.099373
408.000000	4.053371
407.000000	4.017982
406.000000	3.984211
405.000000	3.951684
404.000000	3.912385
403.000000	3.873254
402.000000	3.835601
401.000000	3.807175
400.000000	3.770879
399.000000	3.736724
398.000000	3.704118
397.000000	3.661563
396.000000	3.620388
395.000000	3.584727
394.000000	3.556113
393.000000	3.522791
392.000000	3.487995
391.000000	3.457206
390.000000	3.416610
389.000000	3.381187
388.000000	3.351744
387.000000	3.306711
386.000000	3.276467
385.000000	3.248326
384.000000	3.197703
383.000000	3.170710
382.000000	3.146390
381.000000	3.106265
380.000000	3.068214
379.000000	3.029477
378.000000	3.038389
377.000000	2.808016
376.000000	2.734633
375.000000	2.735261
374.000000	2.714820
373.000000	2.719912
372.000000	2.731310
371.000000	2.757007
370.000000	2.736045
369.000000	2.682703
368.000000	2.671952
367.000000	2.639181
366.000000	2.607844
365.000000	2.580380
364.000000	2.557044
363.000000	2.548020
362.000000	2.515887
361.000000	2.483744
360.000000	2.469551
359.000000	2.442618
358.000000	2.427784
357.000000	2.416532
356.000000	2.375982
355.000000	2.356169
354.000000	2.324292
353.000000	2.295139
352.000000	2.246476
351.000000	2.238638
350.000000	2.262634
349.000000	2.224421
348.000000	2.198903
347.000000	2.154616
346.000000	2.122079
345.000000	2.107003
344.000000	2.068658
343.000000	2.023540
342.000000	2.007315
341.000000	2.018660
340.000000	2.028433
339.000000	1.959762
338.000000	1.904303
337.000000	1.937613
336.000000	1.970439
335.000000	1.916491
334.000000	1.836108
333.000000	1.829473
332.000000	1.865027
331.000000	1.835327
330.000000	1.773737
329.000000	1.744310
328.000000	1.787747
327.000000	1.728301
326.000000	1.691948
325.000000	1.635887
324.000000	1.685208
323.000000	1.754123
322.000000	1.650367
321.000000	1.636983
320.000000	1.598031
319.000000	1.674749
318.000000	1.551686
317.000000	1.455266
316.000000	1.417698
315.000000	1.412910
314.000000	1.360359
313.000000	1.344426
312.000000	1.360443
311.000000	1.331658
310.000000	1.295792
309.000000	1.244811
308.000000	1.274276
307.000000	1.273612
306.000000	1.236090
305.000000	1.220919
304.000000	1.157959
303.000000	1.221274
302.000000	1.208517
301.000000	1.163006
300.000000	1.130471
299.000000	1.107371
298.000000	1.113483
297.000000	1.133150
296.000000	1.052359
295.000000	1.034443
294.000000	1.022751
293.000000	1.026673
292.000000	0.991694
291.000000	0.977240
290.000000	0.955622
289.000000	0.956896
288.000000	0.941318
287.000000	0.929369
286.000000	0.892888
285.000000	0.862188
284.000000	0.890513
283.000000	0.901295
282.000000	0.847933
281.000000	0.826871
280.000000	0.841785
279.000000	0.817955
278.000000	0.809525
277.000000	0.783908
276.000000	0.773153
275.000000	0.773584
274.000000	0.702244
273.000000	0.700901
272.000000	0.722849
271.000000	0.695831
270.000000	0.647261
269.000000	0.665487
268.000000	0.662860
267.000000	0.687148
266.000000	0.668087
265.000000	0.638003
264.000000	0.680776
263.000000	0.650676
262.000000	0.610340
261.000000	0.654816
260.000000	0.673574
259.000000	0.632554
258.000000	0.623750
257.000000	0.631013
256.000000	0.573449
255.000000	0.571155
254.000000	0.576178
253.000000	0.546658
252.000000	0.554187
251.000000	0.521173
250.000000	0.509251
249.000000	0.552087
248.000000	0.512132
247.000000	0.522904
246.000000	0.531443
245.000000	0.503357
244.000000	0.439153
243.000000	0.479060
242.000000	0.480100
241.000000	0.487231
240.000000	0.474295
239.000000	0.424699
238.000000	0.474244
237.000000	0.473195
236.000000	0.465254
235.000000	0.462481
234.000000	0.557883
233.000000	0.431168
232.000000	0.459042
231.000000	0.481090
230.000000	0.501804
229.000000	0.478023
228.000000	0.478216
227.000000	0.498622
226.000000	0.444806
225.000000	0.495223
224.000000	0.513685
223.000000	0.581719
222.000000	0.701402
221.000000	0.596759
220.000000	0.586308
219.000000	0.560113
218.000000	0.547373
217.000000	0.611843
216.000000	0.655956
215.000000	0.569123
214.000000	0.665944
213.000000	0.704412
212.000000	0.841121
211.000000	0.891087
210.000000	0.868732
209.000000	0.920428
208.000000	0.833701
207.000000	0.986150
206.000000	1.160112
205.000000	1.521964
204.000000	1.673130
203.000000	1.920277
202.000000	2.069542
201.000000	2.279927
200.000000	2.775126
